Range(m) Channel1 Channel2
15 0.002732052 0.002732052
30 0.00059278 0.000301671
45 0.000548614 0.000658846
60 0.000849136 0.00112872
75 0.001972633 0.002042316
90 0.003905855 0.003617551
105 0.006308545 0.006151236
120 0.009837236 0.009955229
135 0.014255298 0.015307306
150 0.019663474 0.022123715
165 0.025475856 0.031075389
180 0.031960202 0.041714862
195 0.039015897 0.054290492
210 0.045791346 0.068968654
225 0.054013409 0.08629607
240 0.063052832 0.105556204
255 0.072263104 0.126358134
270 0.081797914 0.148637025
285 0.091976647 0.171982772
300 0.102372381 0.199240414
315 0.114213657 0.228722358
330 0.124622508 0.260069088
345 0.133026223 0.292704383
360 0.141869632 0.32600039
375 0.151063591 0.35772163
390 0.159506628 0.390041598
405 0.169931988 0.422122565
420 0.181839663 0.450032786
435 0.192875462 0.474816596
450 0.202885565 0.500601303
465 0.212888308 0.534894787
480 0.22177827 0.561504944
495 0.23172085 0.592704552
510 0.242766948 0.616875917
525 0.255424129 0.637263729
540 0.26652263 0.654503184
555 0.278839653 0.672766323
570 0.292187084 0.685160879
585 0.304910381 0.698680556
600 0.31744262 0.699519902
615 0.328979756 0.70856104
630 0.340543054 0.714403483
645 0.355863233 0.718909655
660 0.366643821 0.733131288
675 0.374508583 0.736707435
690 0.387784182 0.745234572
705 0.40095114 0.753887601
720 0.408170848 0.753181114
735 0.420580356 0.76490536
750 0.435661424 0.771356807
765 0.446872368 0.777895873
780 0.457706448 0.783676126
795 0.46812925 0.781263162
810 0.478297551 0.793375697
825 0.490242951 0.80041606
840 0.502121761 0.798038095
855 0.514120616 0.803238853
870 0.516333855 0.800312066
885 0.522707466 0.807372232
900 0.539293626 0.804826167
915 0.547606933 0.813577608
930 0.551025075 0.812444991
945 0.567068132 0.814507009
960 0.567934941 0.817432365
975 0.568363638 0.824770138
990 0.587478097 0.833085185
1005 0.594065925 0.825584547
1020 0.590263623 0.829606187
1035 0.592575635 0.836888984
1050 0.602914832 0.830810653
1065 0.619135373 0.832111821
1080 0.625730333 0.831636517
1095 0.632369493 0.830724934
1110 0.642183321 0.827427069
1125 0.646770184 0.827244913
1140 0.653567257 0.837863317
1155 0.65755669 0.835804724
1170 0.659381014 0.83432049
1185 0.66547105 0.837063933
1200 0.679282736 0.844614687
1215 0.684473523 0.83742227
1230 0.688166633 0.840886358
1245 0.688237386 0.845910631
1260 0.689007661 0.855944481
1275 0.702260839 0.854421451
1290 0.71151197 0.84905987
1305 0.714635072 0.85503854
1320 0.722716651 0.850362893
1335 0.728542872 0.850020081
1350 0.73182396 0.848681453
1365 0.738715192 0.844063469
1380 0.738973405 0.85428563
1395 0.74727816 0.836288272
1410 0.752558853 0.83700063
1425 0.757271023 0.838344927
1440 0.764413616 0.849629429
1455 0.771811631 0.841920561
1470 0.775500995 0.85142853
1485 0.784051754 0.855644327
1500 0.789890907 0.860352468
1515 0.79592915 0.853644713
1530 0.802176698 0.855781656
1545 0.812254485 0.882491288
1560 0.820944239 0.869133913
1575 0.826355072 0.855709617
1590 0.836364085 0.86798113
1605 0.850204581 0.869555987
1620 0.863091976 0.873948426
1635 0.881834809 0.870599527
1650 0.896840364 0.871344949
1665 0.915989482 0.875004483
1680 0.923261317 0.886288881
1695 0.935834922 0.885177427
1710 0.942568758 0.882174741
1725 0.939612522 0.86046986
1740 0.936843962 0.869875982
1755 0.929211692 0.868781039
1770 0.929028026 0.886151516
1785 0.923534799 0.879064208
1800 0.919649379 0.879844768
1815 0.92302969 0.889118143
1830 0.908921902 0.890475454
1845 0.907186518 0.888290928
1860 0.900991004 0.888087739
1875 0.900503605 0.892840169
1890 0.891232177 0.902796134
1905 0.894745391 0.891651565
1920 0.888801678 0.902752946
1935 0.886625168 0.903245671
1950 0.890543834 0.911855358
1965 0.889607849 0.904890087
1980 0.892371594 0.902438705
1995 0.901787787 0.900905806
2010 0.904346625 0.897389398
2025 0.910550858 0.900382456
2040 0.916748208 0.898799654
2055 0.929423174 0.880010367
2070 0.929500118 0.880134799
2085 0.93616734 0.893393132
2100 0.939190775 0.900552193
2115 0.95163894 0.915527514
2130 0.94827084 0.895944419
2145 0.951628877 0.902397823
2160 0.960570526 0.900675038
2175 0.958250475 0.926894
2190 0.957160843 0.923560343
2205 0.96731161 0.915815791
2220 0.96571943 0.915567147
2235 0.969108001 0.931565111
2250 0.968967932 0.928150623
2265 0.963899775 0.950014373
2280 0.966823757 0.945837168
2295 0.962468031 0.93431871
2310 0.967990144 0.928734939
2325 0.972252521 0.935832098
2340 0.971704919 0.969290583
2355 0.966493561 0.956371872
2370 0.964913984 0.95853191
2385 0.972243477 0.976975567
2400 0.969680518 0.965996016
2415 0.968771709 0.959531441
2430 0.966651251 0.964680088
2445 0.971218557 0.970238644
2460 0.962390653 0.986236213
2475 0.958877016 0.969608521
2490 0.957775451 0.993205292
2505 0.965963878 0.985540683
2520 0.967780615 0.999068796
2535 0.966603716 0.979847854
2550 0.969341928 1.006215498
2565 0.972997568 0.989735409
2580 0.965471842 1
2595 0.975502349 1
2610 0.977496839 1
2625 0.973465325 1
2640 0.977522488 1
2655 0.974885491 1
2670 0.97839725 1
2685 0.977175203 1
2700 0.990202996 1
2715 0.988440359 1
2730 0.979856537 1
2745 0.990435897 1
2760 0.987949453 1
2775 0.982665643 1
2790 0.989249734 1
2805 0.988731662 1
2820 0.991323616 1
2835 0.998248611 1
2850 0.998664734 1
2865 0.997561873 1
2880 0.9871821 1
2895 0.99188839 1
2910 0.990868164 1
2925 0.989002586 1
2940 0.989310042 1
2955 0.996037865 1
2970 0.999419178 1
2985 0.998604933 1
3000 1 1
3015 1 1
3030 1 1
3045 1 1
3060 1 1
3075 1 1
3090 1 1
3105 1 1
3120 1 1
3135 1 1
3150 1 1
3165 1 1
3180 1 1
3195 1 1
3210 1 1
3225 1 1
3240 1 1
3255 1 1
3270 1 1
3285 1 1
3300 1 1
3315 1 1
3330 1 1
3345 1 1
3360 1 1
3375 1 1
3390 1 1
3405 1 1
3420 1 1
3435 1 1
3450 1 1
3465 1 1
3480 1 1
3495 1 1
3510 1 1
3525 1 1
3540 1 1
3555 1 1
3570 1 1
3585 1 1
3600 1 1
3615 1 1
3630 1 1
3645 1 1
3660 1 1
3675 1 1
3690 1 1
3705 1 1
3720 1 1
3735 1 1
3750 1 1
3765 1 1
3780 1 1
3795 1 1
3810 1 1
3825 1 1
3840 1 1
3855 1 1
3870 1 1
3885 1 1
3900 1 1
3915 1 1
3930 1 1
3945 1 1
3960 1 1
3975 1 1
3990 1 1
4005 1 1
4020 1 1
4035 1 1
4050 1 1
4065 1 1
4080 1 1
4095 1 1
4110 1 1
4125 1 1
4140 1 1
4155 1 1
4170 1 1
4185 1 1
4200 1 1
4215 1 1
4230 1 1
4245 1 1
4260 1 1
4275 1 1
4290 1 1
4305 1 1
4320 1 1
4335 1 1
4350 1 1
4365 1 1
4380 1 1
4395 1 1
4410 1 1
4425 1 1
4440 1 1
4455 1 1
4470 1 1
4485 1 1
4500 1 1
4515 1 1
4530 1 1
4545 1 1
4560 1 1
4575 1 1
4590 1 1
4605 1 1
4620 1 1
4635 1 1
4650 1 1
4665 1 1
4680 1 1
4695 1 1
4710 1 1
4725 1 1
4740 1 1
4755 1 1
4770 1 1
4785 1 1
4800 1 1
4815 1 1
4830 1 1
4845 1 1
4860 1 1
4875 1 1
4890 1 1
4905 1 1
4920 1 1
4935 1 1
4950 1 1
4965 1 1
4980 1 1
4995 1 1
5010 1 1
5025 1 1
5040 1 1
5055 1 1
5070 1 1
5085 1 1
5100 1 1
5115 1 1
5130 1 1
5145 1 1
5160 1 1
5175 1 1
5190 1 1
5205 1 1
5220 1 1
5235 1 1
5250 1 1
5265 1 1
5280 1 1
5295 1 1
5310 1 1
5325 1 1
5340 1 1
5355 1 1
5370 1 1
5385 1 1
5400 1 1
5415 1 1
5430 1 1
5445 1 1
5460 1 1
5475 1 1
5490 1 1
5505 1 1
5520 1 1
5535 1 1
5550 1 1
5565 1 1
5580 1 1
5595 1 1
5610 1 1
5625 1 1
5640 1 1
5655 1 1
5670 1 1
5685 1 1
5700 1 1
5715 1 1
5730 1 1
5745 1 1
5760 1 1
5775 1 1
5790 1 1
5805 1 1
5820 1 1
5835 1 1
5850 1 1
5865 1 1
5880 1 1
5895 1 1
5910 1 1
5925 1 1
5940 1 1
5955 1 1
5970 1 1
5985 1 1
6000 1 1
6015 1 1
6030 1 1
6045 1 1
6060 1 1
6075 1 1
6090 1 1
6105 1 1
6120 1 1
6135 1 1
6150 1 1
6165 1 1
6180 1 1
6195 1 1
6210 1 1
6225 1 1
6240 1 1
6255 1 1
6270 1 1
6285 1 1
6300 1 1
6315 1 1
6330 1 1
6345 1 1
6360 1 1
6375 1 1
6390 1 1
6405 1 1
6420 1 1
6435 1 1
6450 1 1
6465 1 1
6480 1 1
6495 1 1
6510 1 1
6525 1 1
6540 1 1
6555 1 1
6570 1 1
6585 1 1
6600 1 1
6615 1 1
6630 1 1
6645 1 1
6660 1 1
6675 1 1
6690 1 1
6705 1 1
6720 1 1
6735 1 1
6750 1 1
6765 1 1
6780 1 1
6795 1 1
6810 1 1
6825 1 1
6840 1 1
6855 1 1
6870 1 1
6885 1 1
6900 1 1
6915 1 1
6930 1 1
6945 1 1
6960 1 1
6975 1 1
6990 1 1
7005 1 1
7020 1 1
7035 1 1
7050 1 1
7065 1 1
7080 1 1
7095 1 1
7110 1 1
7125 1 1
7140 1 1
7155 1 1
7170 1 1
7185 1 1
7200 1 1
7215 1 1
7230 1 1
7245 1 1
7260 1 1
7275 1 1
7290 1 1
7305 1 1
7320 1 1
7335 1 1
7350 1 1
7365 1 1
7380 1 1
7395 1 1
7410 1 1
7425 1 1
7440 1 1
7455 1 1
7470 1 1
7485 1 1
7500 1 1
7515 1 1
7530 1 1
7545 1 1
7560 1 1
7575 1 1
7590 1 1
7605 1 1
7620 1 1
7635 1 1
7650 1 1
7665 1 1
7680 1 1
7695 1 1
7710 1 1
7725 1 1
7740 1 1
7755 1 1
7770 1 1
7785 1 1
7800 1 1
7815 1 1
7830 1 1
7845 1 1
7860 1 1
7875 1 1
7890 1 1
7905 1 1
7920 1 1
7935 1 1
7950 1 1
7965 1 1
7980 1 1
7995 1 1
8010 1 1
8025 1 1
8040 1 1
8055 1 1
8070 1 1
8085 1 1
8100 1 1
8115 1 1
8130 1 1
8145 1 1
8160 1 1
8175 1 1
8190 1 1
8205 1 1
8220 1 1
8235 1 1
8250 1 1
8265 1 1
8280 1 1
8295 1 1
8310 1 1
8325 1 1
8340 1 1
8355 1 1
8370 1 1
8385 1 1
8400 1 1
8415 1 1
8430 1 1
8445 1 1
8460 1 1
8475 1 1
8490 1 1
8505 1 1
8520 1 1
8535 1 1
8550 1 1
8565 1 1
8580 1 1
8595 1 1
8610 1 1
8625 1 1
8640 1 1
8655 1 1
8670 1 1
8685 1 1
8700 1 1
8715 1 1
8730 1 1
8745 1 1
8760 1 1
8775 1 1
8790 1 1
8805 1 1
8820 1 1
8835 1 1
8850 1 1
8865 1 1
8880 1 1
8895 1 1
8910 1 1
8925 1 1
8940 1 1
8955 1 1
8970 1 1
8985 1 1
9000 1 1
9015 1 1
9030 1 1
9045 1 1
9060 1 1
9075 1 1
9090 1 1
9105 1 1
9120 1 1
9135 1 1
9150 1 1
9165 1 1
9180 1 1
9195 1 1
9210 1 1
9225 1 1
9240 1 1
9255 1 1
9270 1 1
9285 1 1
9300 1 1
9315 1 1
9330 1 1
9345 1 1
9360 1 1
9375 1 1
9390 1 1
9405 1 1
9420 1 1
9435 1 1
9450 1 1
9465 1 1
9480 1 1
9495 1 1
9510 1 1
9525 1 1
9540 1 1
9555 1 1
9570 1 1
9585 1 1
9600 1 1
9615 1 1
9630 1 1
9645 1 1
9660 1 1
9675 1 1
9690 1 1
9705 1 1
9720 1 1
9735 1 1
9750 1 1
9765 1 1
9780 1 1
9795 1 1
9810 1 1
9825 1 1
9840 1 1
9855 1 1
9870 1 1
9885 1 1
9900 1 1
9915 1 1
9930 1 1
9945 1 1
9960 1 1
9975 1 1
9990 1 1
10005 1 1
10020 1 1
10035 1 1
10050 1 1
10065 1 1
10080 1 1
10095 1 1
10110 1 1
10125 1 1
10140 1 1
10155 1 1
10170 1 1
10185 1 1
10200 1 1
10215 1 1
10230 1 1
10245 1 1
10260 1 1
10275 1 1
10290 1 1
10305 1 1
10320 1 1
10335 1 1
10350 1 1
10365 1 1
10380 1 1
10395 1 1
10410 1 1
10425 1 1
10440 1 1
10455 1 1
10470 1 1
10485 1 1
10500 1 1
10515 1 1
10530 1 1
10545 1 1
10560 1 1
10575 1 1
10590 1 1
10605 1 1
10620 1 1
10635 1 1
10650 1 1
10665 1 1
10680 1 1
10695 1 1
10710 1 1
10725 1 1
10740 1 1
10755 1 1
10770 1 1
10785 1 1
10800 1 1
10815 1 1
10830 1 1
10845 1 1
10860 1 1
10875 1 1
10890 1 1
10905 1 1
10920 1 1
10935 1 1
10950 1 1
10965 1 1
10980 1 1
10995 1 1
11010 1 1
11025 1 1
11040 1 1
11055 1 1
11070 1 1
11085 1 1
11100 1 1
11115 1 1
11130 1 1
11145 1 1
11160 1 1
11175 1 1
11190 1 1
11205 1 1
11220 1 1
11235 1 1
11250 1 1
11265 1 1
11280 1 1
11295 1 1
11310 1 1
11325 1 1
11340 1 1
11355 1 1
11370 1 1
11385 1 1
11400 1 1
11415 1 1
11430 1 1
11445 1 1
11460 1 1
11475 1 1
11490 1 1
11505 1 1
11520 1 1
11535 1 1
11550 1 1
11565 1 1
11580 1 1
11595 1 1
11610 1 1
11625 1 1
11640 1 1
11655 1 1
11670 1 1
11685 1 1
11700 1 1
11715 1 1
11730 1 1
11745 1 1
11760 1 1
11775 1 1
11790 1 1
11805 1 1
11820 1 1
11835 1 1
11850 1 1
11865 1 1
11880 1 1
11895 1 1
11910 1 1
11925 1 1
11940 1 1
11955 1 1
11970 1 1
11985 1 1
12000 1 1
12015 1 1
12030 1 1
12045 1 1
12060 1 1
12075 1 1
12090 1 1
12105 1 1
12120 1 1
12135 1 1
12150 1 1
12165 1 1
12180 1 1
12195 1 1
12210 1 1
12225 1 1
12240 1 1
12255 1 1
12270 1 1
12285 1 1
12300 1 1
12315 1 1
12330 1 1
12345 1 1
12360 1 1
12375 1 1
12390 1 1
12405 1 1
12420 1 1
12435 1 1
12450 1 1
12465 1 1
12480 1 1
12495 1 1
12510 1 1
12525 1 1
12540 1 1
12555 1 1
12570 1 1
12585 1 1
12600 1 1
12615 1 1
12630 1 1
12645 1 1
12660 1 1
12675 1 1
12690 1 1
12705 1 1
12720 1 1
12735 1 1
12750 1 1
12765 1 1
12780 1 1
12795 1 1
12810 1 1
12825 1 1
12840 1 1
12855 1 1
12870 1 1
12885 1 1
12900 1 1
12915 1 1
12930 1 1
12945 1 1
12960 1 1
12975 1 1
12990 1 1
13005 1 1
13020 1 1
13035 1 1
13050 1 1
13065 1 1
13080 1 1
13095 1 1
13110 1 1
13125 1 1
13140 1 1
13155 1 1
13170 1 1
13185 1 1
13200 1 1
13215 1 1
13230 1 1
13245 1 1
13260 1 1
13275 1 1
13290 1 1
13305 1 1
13320 1 1
13335 1 1
13350 1 1
13365 1 1
13380 1 1
13395 1 1
13410 1 1
13425 1 1
13440 1 1
13455 1 1
13470 1 1
13485 1 1
13500 1 1
13515 1 1
13530 1 1
13545 1 1
13560 1 1
13575 1 1
13590 1 1
13605 1 1
13620 1 1
13635 1 1
13650 1 1
13665 1 1
13680 1 1
13695 1 1
13710 1 1
13725 1 1
13740 1 1
13755 1 1
13770 1 1
13785 1 1
13800 1 1
13815 1 1
13830 1 1
13845 1 1
13860 1 1
13875 1 1
13890 1 1
13905 1 1
13920 1 1
13935 1 1
13950 1 1
13965 1 1
13980 1 1
13995 1 1
14010 1 1
14025 1 1
14040 1 1
14055 1 1
14070 1 1
14085 1 1
14100 1 1
14115 1 1
14130 1 1
14145 1 1
14160 1 1
14175 1 1
14190 1 1
14205 1 1
14220 1 1
14235 1 1
14250 1 1
14265 1 1
14280 1 1
14295 1 1
14310 1 1
14325 1 1
14340 1 1
14355 1 1
14370 1 1
14385 1 1
14400 1 1
14415 1 1
14430 1 1
14445 1 1
14460 1 1
14475 1 1
14490 1 1
14505 1 1
14520 1 1
14535 1 1
14550 1 1
14565 1 1
14580 1 1
14595 1 1
14610 1 1
14625 1 1
14640 1 1
14655 1 1
14670 1 1
14685 1 1
14700 1 1
14715 1 1
14730 1 1
14745 1 1
14760 1 1
14775 1 1
14790 1 1
14805 1 1
14820 1 1
14835 1 1
14850 1 1
14865 1 1
14880 1 1
14895 1 1
14910 1 1
14925 1 1
14940 1 1
14955 1 1
14970 1 1
14985 1 1
15000 1 1
15015 1 1
15030 1 1
15045 1 1
15060 1 1
15075 1 1
15090 1 1
15105 1 1
15120 1 1
15135 1 1
15150 1 1
15165 1 1
15180 1 1
15195 1 1
15210 1 1
15225 1 1
15240 1 1
15255 1 1
15270 1 1
15285 1 1
15300 1 1
15315 1 1
15330 1 1
15345 1 1
15360 1 1
15375 1 1
15390 1 1
15405 1 1
15420 1 1
15435 1 1
15450 1 1
15465 1 1
15480 1 1
15495 1 1
15510 1 1
15525 1 1
15540 1 1
15555 1 1
15570 1 1
15585 1 1
15600 1 1
15615 1 1
15630 1 1
15645 1 1
15660 1 1
15675 1 1
15690 1 1
15705 1 1
15720 1 1
15735 1 1
15750 1 1
15765 1 1
15780 1 1
15795 1 1
15810 1 1
15825 1 1
15840 1 1
15855 1 1
15870 1 1
15885 1 1
15900 1 1
15915 1 1
15930 1 1
15945 1 1
15960 1 1
15975 1 1
15990 1 1
16005 1 1
16020 1 1
16035 1 1
16050 1 1
16065 1 1
16080 1 1
16095 1 1
16110 1 1
16125 1 1
16140 1 1
16155 1 1
16170 1 1
16185 1 1
16200 1 1
16215 1 1
16230 1 1
16245 1 1
16260 1 1
16275 1 1
16290 1 1
16305 1 1
16320 1 1
16335 1 1
16350 1 1
16365 1 1
16380 1 1
16395 1 1
16410 1 1
16425 1 1
16440 1 1
16455 1 1
16470 1 1
16485 1 1
16500 1 1
16515 1 1
16530 1 1
16545 1 1
16560 1 1
16575 1 1
16590 1 1
16605 1 1
16620 1 1
16635 1 1
16650 1 1
16665 1 1
16680 1 1
16695 1 1
16710 1 1
16725 1 1
16740 1 1
16755 1 1
16770 1 1
16785 1 1
16800 1 1
16815 1 1
16830 1 1
16845 1 1
16860 1 1
16875 1 1
16890 1 1
16905 1 1
16920 1 1
16935 1 1
16950 1 1
16965 1 1
16980 1 1
16995 1 1
17010 1 1
17025 1 1
17040 1 1
17055 1 1
17070 1 1
17085 1 1
17100 1 1
17115 1 1
17130 1 1
17145 1 1
17160 1 1
17175 1 1
17190 1 1
17205 1 1
17220 1 1
17235 1 1
17250 1 1
17265 1 1
17280 1 1
17295 1 1
17310 1 1
17325 1 1
17340 1 1
17355 1 1
17370 1 1
17385 1 1
17400 1 1
17415 1 1
17430 1 1
17445 1 1
17460 1 1
17475 1 1
17490 1 1
17505 1 1
17520 1 1
17535 1 1
17550 1 1
17565 1 1
17580 1 1
17595 1 1
17610 1 1
17625 1 1
17640 1 1
17655 1 1
17670 1 1
17685 1 1
17700 1 1
17715 1 1
17730 1 1
17745 1 1
17760 1 1
17775 1 1
17790 1 1
17805 1 1
17820 1 1
17835 1 1
17850 1 1
17865 1 1
17880 1 1
17895 1 1
17910 1 1
17925 1 1
17940 1 1
17955 1 1
17970 1 1
17985 1 1
18000 1 1
18015 1 1
18030 1 1
18045 1 1
18060 1 1
18075 1 1
18090 1 1
18105 1 1
18120 1 1
18135 1 1
18150 1 1
18165 1 1
18180 1 1
18195 1 1
18210 1 1
18225 1 1
18240 1 1
18255 1 1
18270 1 1
18285 1 1
18300 1 1
18315 1 1
18330 1 1
18345 1 1
18360 1 1
18375 1 1
18390 1 1
18405 1 1
18420 1 1
18435 1 1
18450 1 1
18465 1 1
18480 1 1
18495 1 1
18510 1 1
18525 1 1
18540 1 1
18555 1 1
18570 1 1
18585 1 1
18600 1 1
18615 1 1
18630 1 1
18645 1 1
18660 1 1
18675 1 1
18690 1 1
18705 1 1
18720 1 1
18735 1 1
18750 1 1
18765 1 1
18780 1 1
18795 1 1
18810 1 1
18825 1 1
18840 1 1
18855 1 1
18870 1 1
18885 1 1
18900 1 1
18915 1 1
18930 1 1
18945 1 1
18960 1 1
18975 1 1
18990 1 1
19005 1 1
19020 1 1
19035 1 1
19050 1 1
19065 1 1
19080 1 1
19095 1 1
19110 1 1
19125 1 1
19140 1 1
19155 1 1
19170 1 1
19185 1 1
19200 1 1
19215 1 1
19230 1 1
19245 1 1
19260 1 1
19275 1 1
19290 1 1
19305 1 1
19320 1 1
19335 1 1
19350 1 1
19365 1 1
19380 1 1
19395 1 1
19410 1 1
19425 1 1
19440 1 1
19455 1 1
19470 1 1
19485 1 1
19500 1 1
19515 1 1
19530 1 1
19545 1 1
19560 1 1
19575 1 1
19590 1 1
19605 1 1
19620 1 1
19635 1 1
19650 1 1
19665 1 1
19680 1 1
19695 1 1
19710 1 1
19725 1 1
19740 1 1
19755 1 1
19770 1 1
19785 1 1
19800 1 1
19815 1 1
19830 1 1
19845 1 1
19860 1 1
19875 1 1
19890 1 1
19905 1 1
19920 1 1
19935 1 1
19950 1 1
19965 1 1
19980 1 1
19995 1 1
20010 1 1
20025 1 1
20040 1 1
20055 1 1
20070 1 1
20085 1 1
20100 1 1
20115 1 1
20130 1 1
20145 1 1
20160 1 1
20175 1 1
20190 1 1
20205 1 1
20220 1 1
20235 1 1
20250 1 1
20265 1 1
20280 1 1
20295 1 1
20310 1 1
20325 1 1
20340 1 1
20355 1 1
20370 1 1
20385 1 1
20400 1 1
20415 1 1
20430 1 1
20445 1 1
20460 1 1
20475 1 1
20490 1 1
20505 1 1
20520 1 1
20535 1 1
20550 1 1
20565 1 1
20580 1 1
20595 1 1
20610 1 1
20625 1 1
20640 1 1
20655 1 1
20670 1 1
20685 1 1
20700 1 1
20715 1 1
20730 1 1
20745 1 1
20760 1 1
20775 1 1
20790 1 1
20805 1 1
20820 1 1
20835 1 1
20850 1 1
20865 1 1
20880 1 1
20895 1 1
20910 1 1
20925 1 1
20940 1 1
20955 1 1
20970 1 1
20985 1 1
21000 1 1
21015 1 1
21030 1 1
21045 1 1
21060 1 1
21075 1 1
21090 1 1
21105 1 1
21120 1 1
21135 1 1
21150 1 1
21165 1 1
21180 1 1
21195 1 1
21210 1 1
21225 1 1
21240 1 1
21255 1 1
21270 1 1
21285 1 1
21300 1 1
21315 1 1
21330 1 1
21345 1 1
21360 1 1
21375 1 1
21390 1 1
21405 1 1
21420 1 1
21435 1 1
21450 1 1
21465 1 1
21480 1 1
21495 1 1
21510 1 1
21525 1 1
21540 1 1
21555 1 1
21570 1 1
21585 1 1
21600 1 1
21615 1 1
21630 1 1
21645 1 1
21660 1 1
21675 1 1
21690 1 1
21705 1 1
21720 1 1
21735 1 1
21750 1 1
21765 1 1
21780 1 1
21795 1 1
21810 1 1
21825 1 1
21840 1 1
21855 1 1
21870 1 1
21885 1 1
21900 1 1
21915 1 1
21930 1 1
21945 1 1
21960 1 1
21975 1 1
21990 1 1
22005 1 1
22020 1 1
22035 1 1
22050 1 1
22065 1 1
22080 1 1
22095 1 1
22110 1 1
22125 1 1
22140 1 1
22155 1 1
22170 1 1
22185 1 1
22200 1 1
22215 1 1
22230 1 1
22245 1 1
22260 1 1
22275 1 1
22290 1 1
22305 1 1
22320 1 1
22335 1 1
22350 1 1
22365 1 1
22380 1 1
22395 1 1
22410 1 1
22425 1 1
22440 1 1
22455 1 1
22470 1 1
22485 1 1
22500 1 1
22515 1 1
22530 1 1
22545 1 1
22560 1 1
22575 1 1
22590 1 1
22605 1 1
22620 1 1
22635 1 1
22650 1 1
22665 1 1
22680 1 1
22695 1 1
22710 1 1
22725 1 1
22740 1 1
22755 1 1
22770 1 1
22785 1 1
22800 1 1
22815 1 1
22830 1 1
22845 1 1
22860 1 1
22875 1 1
22890 1 1
22905 1 1
22920 1 1
22935 1 1
22950 1 1
22965 1 1
22980 1 1
22995 1 1
23010 1 1
23025 1 1
23040 1 1
23055 1 1
23070 1 1
23085 1 1
23100 1 1
23115 1 1
23130 1 1
23145 1 1
23160 1 1
23175 1 1
23190 1 1
23205 1 1
23220 1 1
23235 1 1
23250 1 1
23265 1 1
23280 1 1
23295 1 1
23310 1 1
23325 1 1
23340 1 1
23355 1 1
23370 1 1
23385 1 1
23400 1 1
23415 1 1
23430 1 1
23445 1 1
23460 1 1
23475 1 1
23490 1 1
23505 1 1
23520 1 1
23535 1 1
23550 1 1
23565 1 1
23580 1 1
23595 1 1
23610 1 1
23625 1 1
23640 1 1
23655 1 1
23670 1 1
23685 1 1
23700 1 1
23715 1 1
23730 1 1
23745 1 1
23760 1 1
23775 1 1
23790 1 1
23805 1 1
23820 1 1
23835 1 1
23850 1 1
23865 1 1
23880 1 1
23895 1 1
23910 1 1
23925 1 1
23940 1 1
23955 1 1
23970 1 1
23985 1 1
24000 1 1
24015 1 1
24030 1 1
24045 1 1
24060 1 1
24075 1 1
24090 1 1
24105 1 1
24120 1 1
24135 1 1
24150 1 1
24165 1 1
24180 1 1
24195 1 1
24210 1 1
24225 1 1
24240 1 1
24255 1 1
24270 1 1
24285 1 1
24300 1 1
24315 1 1
24330 1 1
24345 1 1
24360 1 1
24375 1 1
24390 1 1
24405 1 1
24420 1 1
24435 1 1
24450 1 1
24465 1 1
24480 1 1
24495 1 1
24510 1 1
24525 1 1
24540 1 1
24555 1 1
24570 1 1
24585 1 1
24600 1 1
24615 1 1
24630 1 1
24645 1 1
24660 1 1
24675 1 1
24690 1 1
24705 1 1
24720 1 1
24735 1 1
24750 1 1
24765 1 1
24780 1 1
24795 1 1
24810 1 1
24825 1 1
24840 1 1
24855 1 1
24870 1 1
24885 1 1
24900 1 1
24915 1 1
24930 1 1
24945 1 1
24960 1 1
24975 1 1
24990 1 1
25005 1 1
25020 1 1
25035 1 1
25050 1 1
25065 1 1
25080 1 1
25095 1 1
25110 1 1
25125 1 1
25140 1 1
25155 1 1
25170 1 1
25185 1 1
25200 1 1
25215 1 1
25230 1 1
25245 1 1
25260 1 1
25275 1 1
25290 1 1
25305 1 1
25320 1 1
25335 1 1
25350 1 1
25365 1 1
25380 1 1
25395 1 1
25410 1 1
25425 1 1
25440 1 1
25455 1 1
25470 1 1
25485 1 1
25500 1 1
25515 1 1
25530 1 1
25545 1 1
25560 1 1
25575 1 1
